# Matter power spectrum P(k) at redshift z=0
# for k=1.05367e-05 to 105.476 h/Mpc,
# number of wavenumbers equal to 132
#    1:k (h/Mpc)              2:P (Mpc/h)^3        
       1.053673596371e-05       5.060808105865e+01 
       1.326496466208e-05       6.316248465081e+01 
       1.669960109965e-05       7.883121349293e+01 
       2.102355219117e-05       9.838674596675e+01 
       2.646708409965e-05       1.227931260729e+02 
       3.332008474914e-05       1.532533506945e+02 
       4.194750141383e-05       1.912685543023e+02 
       5.280877549114e-05       2.387115509474e+02 
       6.648230943153e-05       2.979184174557e+02 
       8.369626877812e-05       3.718021526383e+02 
       1.053673596371e-04       4.639932081605e+02 
       1.326496466208e-04       5.790124886435e+02 
       1.669960109965e-04       7.223971188554e+02 
       2.102355219117e-04       9.012477594579e+02 
       2.646708409965e-04       1.124134794772e+03 
       3.332008474914e-04       1.401676545847e+03 
       4.194750141383e-04       1.746853193829e+03 
       5.280877549114e-04       2.175370259167e+03 
       6.648230943153e-04       2.705959938906e+03 
       8.369626877812e-04       3.360528823952e+03 
       1.053673596371e-03       4.164003835031e+03 
       1.326496466208e-03       5.143647761589e+03 
       1.669960109965e-03       6.327448059804e+03 
       2.102355219117e-03       7.741985329799e+03 
       2.646708409965e-03       9.407897159585e+03 
       3.332008474914e-03       1.133331495447e+04 
       4.194750141383e-03       1.350477686881e+04 
       5.280877549114e-03       1.587572084936e+04 
       6.648230943153e-03       1.835189831797e+04 
       8.369626877812e-03       2.077700720290e+04 
       1.053673596371e-02       2.292180303522e+04 
       1.326496466208e-02       2.446669839272e+04 
       1.669960109962e-02       2.502924744272e+04 
       2.102355202030e-02       2.423670748430e+04 
       2.646695467386e-02       2.192665880926e+04 
       3.330224374738e-02       1.845795526953e+04 
       4.135596320779e-02       1.501509687732e+04 
       4.814365073042e-02       1.305079652785e+04 
       5.306670472349e-02       1.208545362168e+04 
       5.712683115337e-02       1.148364007901e+04 
       6.075211323596e-02       1.103032095781e+04 
       6.413338979608e-02       1.063580158650e+04 
       6.737167045857e-02       1.025503167945e+04 
       7.052752172046e-02       9.863921691495e+03 
       7.364072767811e-02       9.450913232311e+03 
       7.673932683540e-02       9.012991617740e+03 
       7.984423803672e-02       8.553637531793e+03 
       8.297183101645e-02       8.081194472090e+03 
       8.613544956543e-02       7.607159581812e+03 
       8.934636171780e-02       7.144738285010e+03 
       9.261437787379e-02       6.707154815892e+03 
       9.594826703267e-02       6.306155154336e+03 
       9.935604519347e-02       5.950641476609e+03 
       1.028451799312e-01       5.645865799053e+03 
       1.064227382963e-01       5.392889967133e+03 
       1.100954953450e-01       5.188265545344e+03 
       1.138700146629e-01       5.024296386753e+03 
       1.177527085547e-01       4.889446862813e+03 
       1.217498832190e-01       4.769406243964e+03 
       1.258677727047e-01       4.648701380264e+03 
       1.301125644413e-01       4.513065049417e+03 
       1.344904184695e-01       4.352222048532e+03 
       1.390074820529e-01       4.162484509783e+03 
       1.436699010599e-01       3.947931578845e+03 
       1.484838293072e-01       3.719778711962e+03 
       1.534554369336e-01       3.493646778519e+03 
       1.585909187897e-01       3.285550398818e+03 
       1.638965037813e-01       3.107941642873e+03 
       1.693784660713e-01       2.966531577492e+03 
       1.750431390264e-01       2.859050075491e+03 
       1.808969327795e-01       2.775668995837e+03 
       1.869463562733e-01       2.702141355525e+03 
       1.931980446425e-01       2.622491223524e+03 
       1.996587927967e-01       2.524923979423e+03 
       2.063355960823e-01       2.408014418837e+03 
       2.132356989277e-01       2.280256598092e+03 
       2.203666524431e-01       2.155562183363e+03 
       2.277363820377e-01       2.046658268229e+03 
       2.353532662697e-01       1.959649575926e+03 
       2.432262283630e-01       1.891989395140e+03 
       2.513648421297e-01       1.834106604153e+03 
       2.597794544632e-01       1.774287791136e+03 
       2.684813271321e-01       1.705269826858e+03 
       2.774828013683e-01       1.628558928668e+03 
       2.867974897405e-01       1.552655469613e+03 
       2.964405011404e-01       1.486159371129e+03 
       3.064287064602e-01       1.431456818745e+03 
       3.167810548881e-01       1.383860616755e+03 
       3.275189538917e-01       1.336181609576e+03 
       3.386667302257e-01       1.284882542817e+03 
       3.502521951526e-01       1.232502107441e+03 
       3.623073452076e-01       1.184100881419e+03 
       3.748692413180e-01       1.141559157653e+03 
       3.879811255521e-01       1.102043956127e+03 
       4.016938587649e-01       1.062128765314e+03 
       4.160677980513e-01       1.021883864021e+03 
       4.311752869293e-01       9.835835798045e+02 
       4.471040148684e-01       9.479405390068e+02 
       4.639616356584e-01       9.134052809263e+02 
       4.818822508901e-01       8.788376904572e+02 
       5.010357293130e-01       8.450969251475e+02 
       5.216414668512e-01       8.125382767100e+02 
       5.439893379097e-01       7.800543533355e+02 
       5.684727512704e-01       7.475920749927e+02 
       5.956430119263e-01       7.151335623075e+02 
       6.263031822375e-01       6.819570451651e+02 
       6.616797200552e-01       6.476730398118e+02 
       7.037582277056e-01       6.113672442826e+02 
       7.559926591020e-01       5.717772231687e+02 
       8.249241681955e-01       5.267217390079e+02 
       9.240060193123e-01       4.725674114114e+02 
       1.080694196785e+00       4.044682686385e+02 
       1.330092819727e+00       3.238998143465e+02 
       1.671716227213e+00       2.464535903197e+02 
       2.104513513578e+00       1.804278261258e+02 
       2.649425346685e+00       1.271251357229e+02 
       3.335428895492e+00       8.646961486908e+01 
       4.199056195767e+00       5.707682730859e+01 
       5.286298550403e+00       3.676370096318e+01 
       6.655055579433e+00       2.322511216685e+01 
       8.378218585851e+00       1.445366510504e+01 
       1.054755228329e+01       8.892682721073e+00 
       1.327858160167e+01       5.424339612400e+00 
       1.671674381092e+01       3.287481606461e+00 
       2.104513358602e+01       1.982883475240e+00 
       2.649425346604e+01       1.191749720001e+00 
       3.335428895492e+01       7.143763426017e-01 
       4.199056195767e+01       4.273861454299e-01 
       5.286298550403e+01       2.553203852214e-01 
       6.655055579433e+01       1.523650384934e-01 
       8.378218585851e+01       9.085328791750e-02 
       1.054755228329e+02       5.414280870730e-02 
